t [s],u [deg],y [deg],i [A]
0.000000,0.001561,0.006104,-0.007324
0.000050,0.000387,0.000000,-0.013885
0.000100,-0.003316,-0.003052,-0.005951
0.000150,-0.006076,0.003052,-0.002441
0.000200,-0.007943,0.000000,-0.038300
0.000250,-0.009180,-0.008545,-0.019226
0.000300,-0.010032,0.000610,-0.015717
0.000350,-0.010760,-0.002441,-0.018005
0.000400,-0.011513,-0.012207,0.008698
0.000450,-0.012207,-0.001221,-0.019684
0.000500,-0.012564,-0.001221,-0.021515
0.000550,-0.012336,-0.018921,-0.005646
0.000600,-0.011394,-0.011597,-0.022278
0.000650,-0.009677,-0.021362,0.009308
0.000700,-0.007173,-0.012207,0.007629
0.000750,-0.003979,-0.009155,-0.017395
0.000800,-0.000343,0.005493,-0.008392
0.000850,0.003248,-0.010376,-0.011139
0.000900,0.006067,-0.005493,-0.008240
0.000950,0.007378,-0.001831,-0.014343
0.001000,0.006806,0.011597,-0.016327
0.001050,0.004611,0.007324,-0.004425
0.001100,0.001664,0.000000,-0.040588
0.001150,-0.000991,-0.003052,-0.032043
0.001200,-0.002662,0.012817,-0.029144
0.001250,-0.003225,0.007324,-0.022430
0.001300,-0.003008,0.009155,-0.003204
0.001350,-0.002561,0.010376,-0.019379
0.001400,-0.002308,-0.007324,-0.009766
0.001450,-0.002298,0.001831,-0.003052
0.001500,-0.002254,0.010376,-0.006714
0.001550,-0.001936,0.006104,-0.030518
0.001600,-0.001446,-0.005493,0.000916
0.001650,-0.001150,0.012817,-0.019531
0.001700,-0.001427,-0.001221,-0.006409
0.001750,-0.002440,-0.006714,-0.015411
0.001800,-0.003966,-0.001221,-0.015411
0.001850,-0.005453,-0.002441,-0.006866
0.001900,-0.006356,-0.003052,-0.040588
0.001950,-0.006472,-0.004883,-0.002441
0.002000,-0.006016,-0.002441,-0.008392
0.002050,-0.005403,-0.014648,-0.004120
0.002100,-0.004987,0.012207,0.003357
0.002150,-0.004930,-0.001831,-0.006866
0.002200,-0.005153,-0.013428,-0.014801
0.002250,-0.005334,-0.018311,0.005798
0.002300,-0.005133,-0.003052,-0.009766
0.002350,-0.004412,0.000610,-0.013275
0.002400,-0.003220,-0.007935,0.006104
0.002450,-0.001778,0.000000,0.004120
0.002500,-0.000481,0.003662,-0.011139
0.002550,0.000186,-0.000610,-0.015259
0.002600,-0.000160,-0.012207,0.009918
0.002650,-0.001549,-0.004272,0.007935
0.002700,-0.003555,-0.003052,-0.037384
0.002750,-0.005460,0.015259,-0.022430
0.002800,-0.006550,0.001221,-0.031738
0.002850,-0.006399,0.008545,-0.027466
0.002900,-0.005101,0.004272,-0.018921
0.002950,-0.003288,0.000610,-0.010834
0.003000,-0.001810,-0.006104,0.010834
0.003050,-0.001290,0.002441,-0.018768
0.003100,-0.001891,-0.015259,0.004425
0.003150,-0.003376,-0.006714,-0.010986
0.003200,-0.005279,-0.012207,-0.010376
0.003250,-0.007084,0.003052,-0.022888
0.003300,-0.008444,0.000000,-0.037537
0.003350,-0.009176,-0.001831,-0.011749
0.003400,-0.009114,-0.001831,0.009003
0.003450,-0.008082,0.007935,-0.015106
0.003500,-0.005963,-0.018921,-0.004120
0.003550,-0.002877,-0.007324,0.005035
0.003600,0.000648,-0.006104,-0.005035
0.003650,0.003772,-0.003662,-0.023193
0.003700,0.005677,-0.006714,0.011139
0.003750,0.005927,0.001831,-0.013428
0.003800,0.004658,0.004883,-0.007324
0.003850,0.002492,0.009766,-0.048981
0.003900,0.000273,0.009766,-0.024872
0.003950,-0.001185,0.000610,-0.033569
0.004000,-0.001378,0.001831,-0.044708
0.004050,-0.000356,0.003052,0.001068
0.004100,0.001300,0.017090,-0.011902
0.004150,0.002798,0.002441,0.009918
0.004200,0.003470,0.007935,-0.005035
0.004250,0.002917,0.006104,-0.018158
0.004300,0.001055,0.002441,-0.006409
0.004350,-0.001816,0.001221,-0.003967
0.004400,-0.005051,0.015259,-0.030823
0.004450,-0.007886,0.000610,-0.011292
0.004500,-0.009691,0.010376,-0.037689
0.004550,-0.010129,-0.001221,-0.002441
0.004600,-0.009191,-0.005493,-0.003662
0.004650,-0.007109,-0.013428,-0.023956
0.004700,-0.004232,0.009155,0.019684
0.004750,-0.000954,-0.006714,0.015717
0.004800,0.002271,0.007935,0.014038
0.004850,0.004833,-0.003662,0.010376
0.004900,0.006013,-0.005493,-0.014801
0.004950,0.005267,-0.001221,-0.010986
0.005000,0.002592,-0.006104,-0.003052
0.005050,-0.001320,0.012817,-0.028534
0.005100,-0.005270,0.001221,-0.022736
0.005150,-0.007923,0.018311,-0.031128
0.005200,-0.008328,0.011597,-0.037994
0.005250,-0.006466,0.010376,-0.024109
0.005300,-0.003299,-0.001221,-0.005035
0.005350,-0.000240,-0.006104,0.005188
0.005400,0.001455,0.000000,-0.004883
0.005450,0.001182,0.002441,0.021973
0.005500,-0.000728,0.000000,-0.011597
0.005550,-0.003169,-0.010986,-0.018768
0.005600,-0.004816,0.001221,-0.025024
0.005650,-0.004836,0.009766,-0.030365
0.005700,-0.003391,0.004883,-0.030823
0.005750,-0.001530,0.006714,-0.009460
0.005800,-0.000476,0.010986,-0.003357
0.005850,-0.000826,-0.005493,0.005341
0.005900,-0.002175,0.007324,-0.028229
0.005950,-0.003436,-0.006104,-0.019073
0.006000,-0.003611,0.001831,-0.015717
0.006050,-0.002444,0.002441,-0.006104
0.006100,-0.000586,0.010986,0.006409
0.006150,0.000870,0.010376,-0.010376
0.006200,0.001158,-0.001831,0.010223
0.006250,0.000322,0.009766,-0.011292
0.006300,-0.000843,-0.000610,-0.024567
0.006350,-0.001337,-0.005493,-0.017700
0.006400,-0.000642,0.006714,-0.020142
0.006450,0.000855,0.011597,-0.021820
0.006500,0.001998,-0.004272,-0.010376
0.006550,0.001619,0.004883,-0.005646
0.006600,-0.000672,-0.007935,-0.015869
0.006650,-0.004290,0.012207,-0.008850
0.006700,-0.007942,-0.001831,-0.032959
0.006750,-0.010225,0.009155,-0.041046
0.006800,-0.010434,0.007324,-0.022888
0.006850,-0.008953,-0.004272,0.000610
0.006900,-0.006959,-0.004883,-0.000458
0.006950,-0.005749,-0.013428,0.006866
0.007000,-0.006070,-0.011597,-0.020142
0.007050,-0.007747,-0.018921,0.001678
0.007100,-0.009774,-0.004272,0.002747
0.007150,-0.010833,0.001221,-0.020294
0.007200,-0.010077,-0.009766,-0.018311
0.007250,-0.007599,-0.004883,0.018616
0.007300,-0.004293,-0.004883,0.003510
0.007350,-0.001398,-0.016479,-0.011749
0.007400,0.000077,-0.004883,-0.000763
0.007450,-0.000129,0.002441,0.009918
0.007500,-0.001462,0.006104,-0.021820
0.007550,-0.002938,-0.007935,-0.018005
0.007600,-0.003657,-0.003052,-0.027008
0.007650,-0.003169,-0.012207,-0.027618
0.007700,-0.001556,-0.003052,-0.015564
0.007750,0.000711,0.000610,-0.001526
0.007800,0.002918,-0.001831,0.010529
0.007850,0.004269,0.006104,0.006866
0.007900,0.004160,-0.005493,-0.023193
0.007950,0.002464,-0.003662,-0.018463
0.008000,-0.000425,0.007324,-0.027771
0.008050,-0.003754,-0.002441,-0.042877
0.008100,-0.006579,-0.007935,-0.028687
0.008150,-0.008067,-0.003052,-0.020905
0.008200,-0.007852,0.003052,-0.035706
0.008250,-0.006100,-0.001831,-0.004272
0.008300,-0.003362,0.000610,-0.020447
0.008350,-0.000380,-0.016479,0.008850
0.008400,0.002222,-0.002441,0.011292
0.008450,0.004196,0.006714,-0.000610
0.008500,0.005596,0.012207,0.000458
0.008550,0.006485,0.000610,-0.027008
0.008600,0.006717,0.005493,-0.026855
0.008650,0.005936,0.000610,-0.021973
0.008700,0.003806,-0.003052,-0.008698
0.008750,0.000366,0.003662,-0.039520
0.008800,-0.003743,0.013428,-0.022278
0.008850,-0.007369,0.010376,-0.010223
0.008900,-0.009337,0.018921,-0.025177
0.008950,-0.009079,0.011597,-0.023193
0.009000,-0.007012,-0.000610,-0.014801
0.009050,-0.004354,-0.002441,-0.018158
0.009100,-0.002471,-0.003662,-0.007324
0.009150,-0.002057,-0.005493,-0.008087
0.009200,-0.002747,0.000000,-0.002289
0.009250,-0.003440,0.001221,-0.007629
0.009300,-0.002965,0.001831,0.003662
0.009350,-0.000770,0.001221,-0.030365
0.009400,0.002632,-0.000610,-0.024567
0.009450,0.005808,0.005493,0.028229
0.009500,0.007185,-0.001831,0.005035
0.009550,0.005993,0.001221,-0.025635
0.009600,0.002716,0.012817,-0.009613
0.009650,-0.001240,0.016479,-0.024719
0.009700,-0.004426,0.001831,-0.039368
0.009750,-0.006187,-0.000610,0.001373
0.009800,-0.006769,0.006714,-0.012665
0.009850,-0.006804,0.012207,-0.015106
0.009900,-0.006754,0.000610,-0.003815
0.009950,-0.006666,-0.012207,-0.012665
0.010000,-0.006303,-0.020142,-0.012054
0.010050,-0.005479,-0.002441,0.002899
0.010100,-0.004302,0.004883,0.007172
0.010150,-0.003136,-0.012817,0.000153
0.010200,-0.002400,0.004272,0.000458
0.010250,-0.002289,-0.004883,-0.015411
0.010300,-0.002661,-0.003662,-0.001984
0.010350,-0.003229,-0.001221,-0.029755
0.010400,-0.003851,0.004883,0.000763
0.010450,-0.004597,0.004883,-0.006714
0.010500,-0.005562,-0.005493,-0.006104
0.010550,-0.006651,-0.003662,-0.011139
0.010600,-0.007513,0.012207,-0.020142
0.010650,-0.007669,0.000610,-0.016785
0.010700,-0.006810,-0.004883,-0.003510
0.010750,-0.005119,-0.011597,-0.010223
0.010800,-0.003263,-0.012817,-0.013428
0.010850,-0.001969,-0.004883,-0.016174
0.010900,-0.001614,-0.018311,0.003204
0.010950,-0.002069,0.003052,0.002594
0.011000,-0.002848,0.000610,0.004425
0.011050,-0.003438,0.004272,-0.024414
0.011100,-0.003641,-0.002441,0.007172
0.011150,-0.003656,0.008545,-0.025177
0.011200,-0.003841,-0.008545,-0.025787
0.011250,-0.004440,0.006104,-0.014496
0.011300,-0.005422,0.002441,-0.001678
0.011350,-0.006420,-0.009766,-0.020294
0.011400,-0.006992,0.004883,-0.027466
0.011450,-0.006949,-0.010986,-0.033264
0.011500,-0.006383,0.009766,-0.006714
0.011550,-0.005545,-0.004883,-0.001678
0.011600,-0.004690,0.005493,-0.015411
0.011650,-0.003907,0.009766,-0.022125
0.011700,-0.003149,-0.015869,0.004272
0.011750,-0.002522,-0.006104,0.008545
0.011800,-0.002412,0.007324,-0.002747
0.011850,-0.003298,-0.016479,0.012360
0.011900,-0.005374,0.013428,0.001678
0.011950,-0.008201,0.001221,-0.023651
0.012000,-0.010698,-0.002441,-0.007935
0.012050,-0.011572,0.006104,-0.013733
0.012100,-0.009994,0.002441,-0.009308
0.012150,-0.006186,0.001831,0.008392
0.012200,-0.001438,-0.004883,0.008087
0.012250,0.002516,-0.009155,0.009613
0.012300,0.004358,-0.010376,-0.001068
0.012350,0.003760,-0.006714,0.008545
0.012400,0.001392,-0.004272,-0.009766
0.012450,-0.001534,-0.001221,-0.016937
0.012500,-0.003863,0.007324,-0.041809
0.012550,-0.005039,0.006714,-0.037537
0.012600,-0.005269,-0.000610,-0.028381
0.012650,-0.005180,0.008545,-0.009918
0.012700,-0.005350,-0.007324,0.011444
0.012750,-0.005969,0.009155,0.012970
0.012800,-0.006733,-0.000610,0.004120
0.012850,-0.007066,-0.015259,-0.013123
0.012900,-0.006508,0.004883,-0.023193
0.012950,-0.004967,-0.000610,-0.032501
0.013000,-0.002732,-0.005493,-0.003815
0.013050,-0.000321,-0.009766,0.017090
0.013100,0.001670,-0.001221,-0.021973
0.013150,0.002736,-0.004883,0.003204
0.013200,0.002685,-0.006104,-0.010529
0.013250,0.001768,0.005493,-0.013123
0.013300,0.000561,-0.006714,-0.024567
0.013350,-0.000368,-0.010376,-0.023651
0.013400,-0.000802,-0.001831,-0.018311
0.013450,-0.000967,-0.004883,-0.014191
0.013500,-0.001255,-0.012817,-0.002289
0.013550,-0.001856,-0.009155,-0.018311
0.013600,-0.002640,0.009766,0.004730
0.013650,-0.003277,0.013428,-0.019989
0.013700,-0.003472,-0.011597,-0.013428
0.013750,-0.003250,0.004272,-0.016022
0.013800,-0.003051,0.012207,-0.017548
0.013850,-0.003451,0.003662,-0.008698
0.013900,-0.004728,-0.001831,-0.012207
0.013950,-0.006683,0.006714,-0.018005
0.014000,-0.008726,-0.002441,-0.028839
0.014050,-0.010139,-0.006714,-0.029602
0.014100,-0.010508,-0.007935,-0.002136
0.014150,-0.010003,0.003662,-0.019226
0.014200,-0.009183,0.010986,-0.010681
0.014250,-0.008573,0.007324,-0.016785
0.014300,-0.008299,-0.000610,0.003662
0.014350,-0.007986,-0.017700,-0.015259
0.014400,-0.007052,-0.002441,-0.015564
0.014450,-0.005223,-0.003662,-0.004425
0.014500,-0.002847,-0.005493,-0.009308
0.014550,-0.000741,-0.014648,0.008545
0.014600,0.000304,-0.012207,-0.019379
0.014650,-0.000008,-0.018921,-0.002136
0.014700,-0.001269,-0.005493,-0.021362
0.014750,-0.002591,-0.006714,-0.013428
0.014800,-0.003133,-0.010376,-0.010071
0.014850,-0.002563,0.001831,-0.005035
0.014900,-0.001235,0.004883,-0.020294
0.014950,-0.000081,-0.006714,0.001373
0.015000,-0.000142,0.014648,-0.012665
0.015050,-0.001893,-0.000610,-0.016022
0.015100,-0.004925,0.009155,-0.007629
0.015150,-0.008175,-0.003662,-0.015259
0.015200,-0.010470,-0.005493,-0.027618
0.015250,-0.011064,0.012817,-0.027161
0.015300,-0.010011,-0.003662,-0.030212
0.015350,-0.008024,0.008545,-0.011444
0.015400,-0.005888,-0.009766,-0.005035
0.015450,-0.004001,-0.010986,-0.007172
0.015500,-0.002359,-0.015259,0.011139
0.015550,-0.000821,-0.010376,-0.016327
0.015600,0.000592,-0.004883,-0.017853
0.015650,0.001527,-0.005493,-0.015717
0.015700,0.001406,-0.001831,-0.033569
0.015750,-0.000148,-0.002441,-0.033264
0.015800,-0.002829,-0.011597,-0.021973
0.015850,-0.005572,0.011597,-0.027618
0.015900,-0.006925,-0.017090,-0.024567
0.015950,-0.005798,0.009155,-0.045166
0.016000,-0.002165,-0.001831,-0.027466
0.016050,0.002856,0.007935,0.023346
0.016100,0.007547,-0.007324,0.016937
0.016150,0.010279,-0.006714,0.012512
0.016200,0.010143,0.012207,0.008850
0.016250,0.007386,0.001831,0.011749
0.016300,0.003221,0.003052,-0.023346
0.016350,-0.000854,0.008545,-0.060883
0.016400,-0.003675,0.014648,-0.038300
0.016450,-0.004689,0.004883,-0.025177
0.016500,-0.003961,0.015259,-0.012665
0.016550,-0.002066,-0.002441,0.014343
0.016600,0.000118,0.021973,0.016632
0.016650,0.001715,0.003662,0.006256
0.016700,0.002142,0.003662,-0.014343
0.016750,0.001326,-0.012817,0.007019
0.016800,-0.000251,0.009766,-0.010223
0.016850,-0.001737,0.004272,-0.016632
0.016900,-0.002355,0.007324,-0.017242
0.016950,-0.001833,0.012207,-0.022888
0.017000,-0.000502,-0.001831,-0.003357
0.017050,0.000844,-0.003662,-0.014496
0.017100,0.001312,0.013428,-0.007782
0.017150,0.000445,-0.001831,-0.034027
0.017200,-0.001454,0.007935,0.008698
0.017250,-0.003421,0.006714,-0.027161
0.017300,-0.004305,-0.003662,-0.011749
0.017350,-0.003437,0.013428,-0.027466
0.017400,-0.000992,0.002441,-0.017853
0.017450,0.002159,-0.005493,-0.020294
0.017500,0.004847,-0.014648,0.007782
0.017550,0.006069,0.000000,0.011749
0.017600,0.005436,-0.006104,0.003204
0.017650,0.003262,-0.003662,-0.008240
0.017700,0.000239,0.003052,-0.018158
0.017750,-0.002937,0.004883,-0.027924
0.017800,-0.005771,-0.003052,-0.018463
0.017850,-0.008055,0.003052,-0.022430
0.017900,-0.009728,-0.004883,-0.018311
0.017950,-0.010621,-0.000610,-0.017548
0.018000,-0.010413,0.009766,-0.011292
0.018050,-0.008888,-0.001221,-0.018768
0.018100,-0.006260,0.003052,-0.013275
0.018150,-0.003292,-0.008545,-0.006104
0.018200,-0.001036,0.009155,-0.017395
0.018250,-0.000301,0.004272,-0.006561
0.018300,-0.001209,-0.011597,-0.009918
0.018350,-0.003080,-0.011597,-0.012054
0.018400,-0.004750,0.000000,-0.011292
0.018450,-0.005218,-0.006104,-0.041656
0.018500,-0.004238,-0.016479,-0.025177
0.018550,-0.002399,-0.010986,-0.009613
0.018600,-0.000664,0.002441,-0.016632
0.018650,0.000248,-0.006104,-0.014496
0.018700,0.000217,-0.003662,0.005798
0.018750,-0.000297,-0.010986,0.007324
0.018800,-0.000515,-0.001221,-0.013428
0.018850,0.000142,0.010986,-0.028992
0.018900,0.001651,0.003662,-0.025635
0.018950,0.003463,-0.000610,0.000916
0.019000,0.004837,-0.003052,-0.015411
0.019050,0.005204,-0.001831,-0.011749
0.019100,0.004469,-0.004883,-0.022736
0.019150,0.002994,-0.001221,0.000610
0.019200,0.001285,-0.005493,-0.016937
0.019250,-0.000308,0.001831,-0.026550
0.019300,-0.001717,0.020752,-0.000153
0.019350,-0.003011,0.012207,-0.015411
0.019400,-0.004143,0.003052,-0.010223
0.019450,-0.004875,-0.003662,-0.035400
0.019500,-0.004913,0.005493,-0.020752
0.019550,-0.004124,-0.005493,0.010223
0.019600,-0.002688,-0.002441,0.008850
0.019650,-0.001148,0.003052,-0.011139
0.019700,-0.000192,-0.009155,0.032043
0.019750,-0.000228,0.006104,-0.005341
0.019800,-0.001087,-0.002441,-0.003357
0.019850,-0.002118,-0.002441,-0.023346
0.019900,-0.002578,-0.005493,-0.039368
0.019950,-0.002015,0.019531,-0.023499
0.020000,-0.000514,-0.003662,-0.019989
0.020050,0.001265,0.015869,-0.015564
0.020100,0.002432,0.000000,0.019226
0.020150,0.002503,-0.001831,0.002594
0.020200,0.001693,-0.002441,-0.027924
0.020250,0.000645,0.005493,-0.012970
0.020300,0.000018,0.006104,-0.023804
0.020350,0.000227,0.004883,-0.021820
0.020400,0.001221,0.006104,-0.018463
0.020450,0.002410,0.006714,-0.007629
0.020500,0.003026,0.011597,-0.009918
0.020550,0.002639,0.010986,-0.007172
0.020600,0.001380,0.012207,-0.013123
0.020650,-0.000219,0.001221,-0.013428
0.020700,-0.001582,0.019531,-0.010223
0.020750,-0.002421,0.000000,-0.013580
0.020800,-0.002934,0.001221,-0.029297
0.020850,-0.003649,0.004272,-0.015717
0.020900,-0.004939,0.001221,-0.008698
0.020950,-0.006604,0.003052,-0.025024
0.021000,-0.007914,0.009766,-0.025024
0.021050,-0.008059,0.006714,-0.020599
0.021100,-0.006725,-0.004272,-0.013428
0.021150,-0.004397,0.004883,-0.033264
0.021200,-0.002142,-0.004272,-0.005646
0.021250,-0.001118,-0.003052,0.019531
0.021300,-0.001995,0.003052,0.014648
0.021350,-0.004469,0.001831,-0.004883
0.021400,-0.007359,-0.001831,-0.021973
0.021450,-0.009263,0.001221,-0.004425
0.021500,-0.009186,0.018311,-0.029449
0.021550,-0.006966,-0.001831,-0.022430
0.021600,-0.003492,0.004883,-0.003204
0.021650,-0.000339,0.002441,0.017242
0.021700,0.001061,0.000000,0.009308
0.021750,0.000096,-0.008545,-0.001526
0.021800,-0.002781,-0.006104,-0.018616
0.021850,-0.006274,-0.007324,-0.027313
0.021900,-0.008883,0.007324,-0.019226
0.021950,-0.009638,-0.004883,-0.018463
0.022000,-0.008446,0.003052,-0.008240
0.022050,-0.005937,0.012207,-0.016022
0.022100,-0.003073,0.002441,0.005493
0.022150,-0.000725,-0.006714,-0.003967
0.022200,0.000642,-0.011597,-0.007935
0.022250,0.001086,-0.010986,-0.004425
0.022300,0.001051,-0.003052,-0.011902
0.022350,0.001054,-0.013428,-0.023041
0.022400,0.001299,-0.003052,-0.013885
0.022450,0.001570,0.003052,-0.020905
0.022500,0.001482,0.005493,-0.018311
0.022550,0.000807,-0.004272,-0.005951
0.022600,-0.000308,0.002441,-0.003815
0.022650,-0.001357,0.004272,-0.017242
0.022700,-0.001718,0.018921,-0.013275
0.022750,-0.000959,0.000610,-0.010681
0.022800,0.000866,0.005493,-0.026093
0.022850,0.003036,0.005493,-0.015259
0.022900,0.004400,0.000000,-0.007477
0.022950,0.003940,0.004883,0.008698
0.023000,0.001295,0.006104,0.009766
0.023050,-0.002875,0.003662,-0.006104
0.023100,-0.007047,0.010986,-0.046082
0.023150,-0.009612,-0.001831,-0.045166
0.023200,-0.009691,0.001831,-0.018921
0.023250,-0.007505,0.013428,-0.013580
0.023300,-0.004128,-0.008545,0.002441
0.023350,-0.000955,0.014038,0.012512
0.023400,0.000810,0.000610,0.010529
0.023450,0.000657,-0.006104,-0.004883
0.023500,-0.001060,-0.009155,-0.005188
0.023550,-0.003436,-0.005493,-0.037842
0.023600,-0.005526,0.004272,-0.022736
0.023650,-0.006674,0.001831,-0.029907
0.023700,-0.006589,0.001221,-0.022736
0.023750,-0.005313,0.004272,-0.020905
0.023800,-0.003177,0.001831,-0.008850
0.023850,-0.000763,0.006104,-0.002136
0.023900,0.001188,-0.000610,-0.002441
0.023950,0.001910,-0.006104,-0.003815
0.024000,0.000937,-0.010376,-0.015717
0.024050,-0.001462,0.004883,-0.021667
0.024100,-0.004262,0.012207,-0.002136
0.024150,-0.006163,0.000610,-0.030518
0.024200,-0.006150,0.000610,-0.022278
0.024250,-0.003960,0.004883,-0.026550
0.024300,-0.000329,-0.001221,-0.001373
0.024350,0.003226,0.001221,0.009460
0.024400,0.005158,0.015259,0.008698
0.024450,0.004729,0.003052,-0.016785
0.024500,0.002338,0.001221,0.027771
0.024550,-0.000743,0.009766,-0.018158
0.024600,-0.003015,0.002441,-0.029755
0.024650,-0.003471,0.010986,-0.047455
0.024700,-0.002039,0.016479,-0.014801
0.024750,0.000444,-0.006104,-0.004883
0.024800,0.002702,0.009766,-0.014496
0.024850,0.003709,-0.004883,0.010834
0.024900,0.003144,-0.002441,-0.011444
0.024950,0.001388,0.003662,0.002289
0.025000,-0.000779,-0.007324,-0.016632
0.025050,-0.002557,0.006714,0.008850
0.025100,-0.003465,0.015869,-0.036469
0.025150,-0.003514,-0.001831,-0.028534
0.025200,-0.002992,0.000000,-0.019684
0.025250,-0.002110,0.000000,-0.018005
0.025300,-0.000853,0.004883,-0.019684
0.025350,0.000901,-0.003052,0.003357
0.025400,0.003131,0.006104,-0.006104
0.025450,0.005453,-0.009155,-0.006714
0.025500,0.007133,0.002441,-0.010834
0.025550,0.007332,-0.000610,-0.008698
0.025600,0.005549,0.002441,-0.023651
0.025650,0.002050,0.003662,0.005035
0.025700,-0.002140,0.001221,-0.014801
0.025750,-0.005713,0.023193,-0.021973
0.025800,-0.007610,0.002441,-0.023651
0.025850,-0.007398,0.014038,-0.012207
0.025900,-0.005354,0.004272,-0.012970
0.025950,-0.002269,0.001221,-0.003052
0.026000,0.000814,-0.010376,-0.001678
0.026050,0.002952,0.006714,-0.002899
0.026100,0.003641,-0.012817,0.011292
0.026150,0.002873,0.003052,-0.017853
0.026200,0.001098,-0.007935,-0.028839
